# factor ===  1.0000
# The first   moment of phonon frequencies <w>  :         238.87 [cm^-1]    7.24 [THz]
# The second  moment of phonon frequencies <w^2>:       73887.26 [cm^-2]   67.85[THz^2]
# Debye temperature via the first   moment of phonon frequencies:     458.26[ K]
# Debye_{\infty}    via the second  moment of phonon frequencies:     504.92[ K]
    3.00      338.32      0.00032632      0.00032632
    6.00      327.02      0.00289065      0.00289065
    9.00      308.05      0.01167096      0.01167096
   12.00      280.96      0.03646313      0.03646313
   15.00      261.06      0.08877493      0.08877493
   20.00      248.71      0.24178741      0.24188573
   30.00      260.33      0.67122274      0.67132079
   40.00      285.91      1.09095734      1.09103789
   50.00      314.41      1.44838297      1.44844716
   60.00      342.28      1.75693578      1.75703302
   70.00      367.70      2.03781170      2.03785649
   80.00      389.72      2.30486666      2.30494618
   90.00      408.19      2.56347116      2.56352843
  100.00      423.36      2.81364615      2.81371414
  110.00      435.72      3.05322727      3.05330652
  120.00      445.78      3.27981748      3.27990624
  130.00      453.99      3.49165280      3.49171872
  140.00      460.73      3.68781506      3.68787003
  150.00      466.30      3.86814109      3.86816632
  160.00      470.94      4.03303269      4.03312593
  170.00      474.86      4.18326459      4.18331958
  180.00      478.17      4.31982689      4.31992597
  190.00      481.02      4.44380906      4.44381701
  200.00      483.46      4.55632069      4.55636354
  210.00      485.58      4.65844091      4.65847518
  220.00      487.43      4.75118846      4.75124518
  230.00      489.07      4.83550612      4.83552714
  240.00      490.51      4.91225450      4.91229455
  250.00      491.80      4.98221176      4.98224807
  260.00      492.96      5.04607690      5.04608972
  270.00      493.99      5.10447499      5.10451116
  280.00      494.93      5.15796340      5.15801416
  290.00      495.78      5.20703816      5.20708899
  300.00      496.56      5.25214038      5.25221003
  310.00      497.27      5.29366214      5.29375244
  320.00      497.95      5.33195203      5.33199823
  330.00      498.56      5.36732019      5.36737463
  340.00      499.12      5.40004271      5.40013457
  350.00      499.66      5.43036569      5.43044586
  360.00      500.18      5.45850875      5.45854379
  370.00      500.65      5.48466812      5.48472348
  380.00      501.11      5.50901944      5.50905295
  390.00      501.50      5.53172008      5.53180592
  400.00      501.92      5.55291133      5.55297011
  410.00      502.29      5.57272020      5.57280227
  420.00      502.66      5.59126106      5.59134867
  430.00      503.01      5.60863705      5.60871865
  440.00      503.36      5.62494134      5.62501609
  450.00      503.68      5.64025821      5.64033958
  460.00      504.02      5.65466405      5.65472222
